#MgSiO4 (Fe poor) - temp_cond=1354, molecular_weight=140.63
#Wav (microns)	n	k
# Fixed error where wavelength column was in wavenumber
8190.008190 2.698270 1.001000E-04
4095.507229 2.698300 2.001750E-04
2730.449978 2.698360 3.003510E-04
2047.879421 2.698450 4.005250E-04
1638.323667 2.698550 5.007010E-04
1365.280907 2.698680 6.010760E-04
1170.247624 2.698840 7.015510E-04
1023.971165 2.699010 8.021260E-04
910.199698 2.699220 9.029010E-04
819.181965 2.699440 1.000000E-03
744.712541 2.699690 1.100000E-03
682.654433 2.699960 1.210000E-03
630.143547 2.700260 1.310000E-03
585.134083 2.700580 1.410000E-03
546.125784 2.700930 1.510000E-03
511.993446 2.701300 1.610000E-03
481.876620 2.701700 1.720000E-03
455.106062 2.702110 1.820000E-03
431.153422 2.702560 1.920000E-03
409.596015 2.703030 2.030000E-03
390.091672 2.703520 2.130000E-03
372.360430 2.704040 2.230000E-03
356.171019 2.704580 2.340000E-03
341.330712 2.705150 2.450000E-03
327.677618 2.705740 2.550000E-03
315.074751 2.706360 2.660000E-03
303.405422 2.707000 2.760000E-03
292.569610 2.707670 2.870000E-03
282.481088 2.708370 2.980000E-03
273.065129 2.709090 3.090000E-03
264.256646 2.709840 3.200000E-03
255.998689 2.710610 3.310000E-03
248.241211 2.711410 3.420000E-03
240.940052 2.712240 3.530000E-03
234.056099 2.713090 3.640000E-03
227.554585 2.713970 3.750000E-03
221.404502 2.714880 3.870000E-03
215.578105 2.715820 3.980000E-03
210.050496 2.716780 4.100000E-03
204.799266 2.717770 4.210000E-03
199.804192 2.718800 4.330000E-03
195.047015 2.719850 4.450000E-03
190.511063 2.720920 4.570000E-03
186.181290 2.722030 4.690000E-03
182.043949 2.723170 4.810000E-03
178.086493 2.724340 4.930000E-03
174.297438 2.725540 5.060000E-03
170.666259 2.726760 5.180000E-03
167.183291 2.728020 5.310000E-03
163.839641 2.729320 5.430000E-03
160.627114 2.730640 5.560000E-03
157.538145 2.732000 5.690000E-03
154.565741 2.733380 5.820000E-03
151.703425 2.734810 5.960000E-03
148.945192 2.736260 6.090000E-03
146.285468 2.737750 6.230000E-03
143.719067 2.739280 6.370000E-03
141.241162 2.740840 6.510000E-03
138.847254 2.742440 6.650000E-03
136.533142 2.744070 6.790000E-03
134.294903 2.745750 6.940000E-03
132.128864 2.747460 7.090000E-03
130.031589 2.749210 7.240000E-03
127.999853 2.751000 7.390000E-03
126.030631 2.752830 7.550000E-03
124.121083 2.754700 7.710000E-03
122.268536 2.756620 7.870000E-03
120.470476 2.758580 8.040000E-03
118.724533 2.760590 8.200000E-03
117.028474 2.762640 8.380000E-03
115.380191 2.764740 8.550000E-03
113.777694 2.766890 8.730000E-03
112.219100 2.769090 8.910000E-03
110.702631 2.771340 9.100000E-03
109.226600 2.773650 9.300000E-03
107.789413 2.776020 9.490000E-03
106.389555 2.778440 9.700000E-03
105.025590 2.780930 9.910000E-03
103.696156 2.783480 1.013000E-02
102.399958 2.786100 1.035000E-02
101.135765 2.788790 1.059000E-02
99.902405 2.791550 1.083000E-02
98.698765 2.794390 1.108000E-02
97.523783 2.797310 1.135000E-02
96.376448 2.800320 1.162000E-02
95.255795 2.803430 1.191000E-02
94.160903 2.806640 1.222000E-02
93.090896 2.809950 1.255000E-02
92.044934 2.813380 1.290000E-02
91.022215 2.816950 1.327000E-02
90.021973 2.820650 1.367000E-02
89.043476 2.824500 1.411000E-02
88.086022 2.828520 1.458000E-02
87.148939 2.832740 1.511000E-02
86.231584 2.837170 1.569000E-02
85.333341 2.841840 1.634000E-02
84.453618 2.846780 1.709000E-02
83.591848 2.852060 1.795000E-02
82.747488 2.857700 1.895000E-02
81.920015 2.863790 2.013000E-02
81.108928 2.870420 2.156000E-02
80.313744 2.877700 2.333000E-02
79.534001 2.885780 2.556000E-02
78.769252 2.894870 2.844000E-02
78.019071 2.905250 3.229000E-02
77.283044 2.917280 3.763000E-02
76.560774 2.931460 4.534000E-02
75.851879 2.948360 5.703000E-02
75.155992 2.968380 7.580000E-02
74.472757 2.990460 1.077700E-01
73.801833 3.006710 1.639300E-01
73.142889 2.986320 2.523300E-01
72.495608 2.879940 3.225300E-01
71.859683 2.754460 2.791100E-01
71.234818 2.713510 1.878200E-01
70.620726 2.723580 1.232300E-01
70.017131 2.745400 8.611000E-02
69.423767 2.766610 6.477000E-02
68.840375 2.784950 5.190000E-02
68.266706 2.800560 4.373000E-02
67.702520 2.814000 3.831000E-02
67.147582 2.825800 3.459000E-02
66.601668 2.836350 3.197000E-02
66.064563 2.845940 3.010000E-02
65.536048 2.854810 2.874000E-02
65.015921 2.863120 2.776000E-02
64.503986 2.870990 2.705000E-02
64.000049 2.878510 2.655000E-02
63.503926 2.885780 2.621000E-02
63.015435 2.892830 2.599000E-02
62.534402 2.899730 2.588000E-02
62.060657 2.906510 2.585000E-02
61.594036 2.913200 2.589000E-02
61.134380 2.919830 2.599000E-02
60.681534 2.926420 2.614000E-02
60.235347 2.932990 2.634000E-02
59.795673 2.939560 2.657000E-02
59.362372 2.946140 2.684000E-02
58.935305 2.952740 2.714000E-02
58.514340 2.959370 2.746000E-02
58.099345 2.966050 2.782000E-02
57.690195 2.972790 2.820000E-02
57.286768 2.979580 2.861000E-02
56.888944 2.986450 2.903000E-02
56.496607 2.993390 2.949000E-02
56.109645 3.000420 2.996000E-02
55.727947 3.007540 3.046000E-02
55.351407 3.014760 3.097000E-02
54.979922 3.022080 3.151000E-02
54.613390 3.029510 3.208000E-02
54.251712 3.037060 3.266000E-02
53.894793 3.044730 3.327000E-02
53.542540 3.052530 3.390000E-02
53.194862 3.060470 3.455000E-02
52.851670 3.068540 3.523000E-02
52.512878 3.076760 3.593000E-02
52.178401 3.085140 3.666000E-02
51.848159 3.093670 3.742000E-02
51.522070 3.102380 3.820000E-02
51.200058 3.111250 3.902000E-02
50.882045 3.120310 3.986000E-02
50.567959 3.129550 4.073000E-02
50.257727 3.138990 4.164000E-02
49.951278 3.148630 4.258000E-02
49.648543 3.158480 4.356000E-02
49.349456 3.168550 4.458000E-02
49.053950 3.178850 4.563000E-02
48.761963 3.189390 4.673000E-02
48.473431 3.200170 4.787000E-02
48.188294 3.211210 4.906000E-02
47.906491 3.222520 5.030000E-02
47.627965 3.234110 5.158000E-02
47.352660 3.246000 5.293000E-02
47.080518 3.258180 5.433000E-02
46.811487 3.270690 5.579000E-02
46.545513 3.283520 5.731000E-02
46.282544 3.296700 5.891000E-02
46.022530 3.310250 6.058000E-02
45.765422 3.324170 6.233000E-02
45.511170 3.338490 6.416000E-02
45.259727 3.353230 6.608000E-02
45.011048 3.368400 6.809000E-02
44.765086 3.384030 7.021000E-02
44.521798 3.400140 7.244000E-02
44.281140 3.416760 7.478000E-02
44.043069 3.433910 7.725000E-02
43.807545 3.451620 7.986000E-02
43.574526 3.469930 8.262000E-02
43.343974 3.488860 8.554000E-02
43.115848 3.508450 8.863000E-02
42.890111 3.528740 9.190000E-02
42.666725 3.549770 9.538000E-02
42.445654 3.571590 9.909000E-02
42.226862 3.594250 1.030300E-01
42.010315 3.617800 1.072400E-01
41.795976 3.642300 1.117500E-01
41.583814 3.667820 1.165700E-01
41.373795 3.694420 1.217500E-01
41.165887 3.722180 1.273200E-01
40.960058 3.751190 1.333200E-01
40.756277 3.781540 1.398000E-01
40.554513 3.813340 1.468200E-01
40.354738 3.846700 1.544400E-01
40.156920 3.881750 1.627400E-01
39.961033 3.918630 1.718000E-01
39.767049 3.957510 1.817200E-01
39.574938 3.998560 1.926200E-01
39.384674 4.041980 2.046400E-01
39.196231 4.088010 2.179400E-01
39.009583 4.136900 2.327300E-01
38.824703 4.188940 2.492200E-01
38.641568 4.244470 2.677200E-01
38.460152 4.303880 2.885700E-01
38.280432 4.367580 3.121900E-01
38.102384 4.436080 3.391100E-01
37.925984 4.509960 3.699900E-01
37.751210 4.589870 4.056700E-01
37.578040 4.676550 4.472000E-01
37.406451 4.770840 4.959400E-01
37.236422 4.873690 5.536700E-01
37.067931 4.986130 6.227300E-01
36.900959 5.109200 7.062500E-01
36.735484 5.243840 8.084400E-01
36.571486 5.390660 9.350000E-01
36.408946 5.549370 1.093760E+00
36.247845 5.717790 1.295390E+00
36.088163 5.889800 1.554030E+00
35.929882 6.051740 1.887360E+00
35.772983 6.176560 2.314100E+00
35.617448 6.216690 2.844710E+00
35.463260 6.103720 3.460810E+00
35.310402 5.772380 4.089020E+00
35.158855 5.216170 4.605620E+00
35.008604 4.521300 4.904070E+00
34.859631 3.816980 4.964860E+00
34.711921 3.196050 4.844180E+00
34.565457 2.691300 4.616240E+00
34.420224 2.297260 4.337690E+00
34.276207 1.994900 4.042350E+00
34.133389 1.764410 3.747590E+00
33.991757 1.589590 3.461140E+00
33.851295 1.458340 3.185550E+00
33.711990 1.362160 2.920910E+00
33.573826 1.295380 2.666160E+00
33.436790 1.254630 2.419960E+00
33.300868 1.238390 2.181160E+00
33.166047 1.246700 1.949440E+00
33.032313 1.280690 1.725910E+00
32.899653 1.341590 1.513910E+00
32.768055 1.429040 1.318950E+00
32.637505 1.539300 1.147220E+00
32.507991 1.665360 1.002760E+00
32.379501 1.799300 8.857500E-01
32.252023 1.934860 7.932500E-01
32.125545 2.068330 7.211100E-01
32.000054 2.198040 6.653500E-01
31.875541 2.323610 6.227000E-01
31.751992 2.445360 5.906900E-01
31.629398 2.563950 5.674900E-01
31.507746 2.680190 5.518300E-01
31.387027 2.794960 5.428400E-01
31.267229 2.909150 5.399800E-01
31.148343 3.023660 5.429800E-01
31.030356 3.139410 5.518400E-01
30.913261 3.257350 5.667800E-01
30.797046 3.378490 5.882700E-01
30.681701 3.503830 6.170800E-01
30.567217 3.634500 6.543100E-01
30.453585 3.771680 7.015400E-01
30.340794 3.916610 7.608900E-01
30.228835 4.070510 8.352800E-01
30.117700 4.234550 9.287400E-01
30.007379 4.409520 1.046780E+00
29.897863 4.595350 1.196980E+00
29.789143 4.790090 1.389740E+00
29.681212 4.987920 1.638870E+00
29.574059 5.175620 1.961710E+00
29.467678 5.326710 2.376380E+00
29.362059 5.394690 2.892590E+00
29.257195 5.313350 3.490930E+00
29.153077 5.021920 4.098500E+00
29.049697 4.519120 4.596740E+00
28.947048 3.891090 4.889170E+00
28.845122 3.258690 4.963660E+00
28.743911 2.704370 4.875650E+00
28.643408 2.255100 4.693630E+00
28.543605 1.904180 4.468480E+00
28.444496 1.633630 4.230110E+00
28.346072 1.425280 3.993780E+00
28.248327 1.264260 3.766220E+00
28.151254 1.139420 3.549750E+00
28.054846 1.042650 3.344470E+00
27.959096 0.968190 3.149470E+00
27.863997 0.911970 2.963390E+00
27.769543 0.871220 2.784730E+00
27.675727 0.844210 2.612000E+00
27.582542 0.830040 2.443840E+00
27.489984 0.828550 2.278990E+00
27.398044 0.840340 2.116520E+00
27.306717 0.866770 1.955920E+00
27.215997 0.909930 1.797500E+00
27.125878 0.972470 1.642820E+00
27.036354 1.056970 1.495310E+00
26.947419 1.164610 1.360390E+00
26.859066 1.293850 1.244420E+00
26.771292 1.440150 1.152570E+00
26.684089 1.597720 1.087200E+00
26.597452 1.761580 1.048280E+00
26.511376 1.928520 1.034820E+00
26.425856 2.096790 1.046260E+00
26.340885 2.265420 1.083240E+00
26.256460 2.433290 1.148000E+00
26.172573 2.598160 1.244500E+00
26.089221 2.755280 1.378330E+00
26.006398 2.895620 1.555950E+00
25.924100 3.003510 1.782270E+00
25.842320 3.055340 2.055320E+00
25.761055 3.023060 2.357860E+00
25.680299 2.887090 2.651550E+00
25.600048 2.654680 2.885530E+00
25.520298 2.364790 3.021350E+00
25.441042 2.068440 3.052120E+00
25.362277 1.804310 2.997180E+00
25.283999 1.590660 2.883990E+00
25.206202 1.431480 2.735650E+00
25.128882 1.324980 2.567620E+00
25.052036 1.269490 2.389570E+00
24.975657 1.266490 2.208720E+00
24.899744 1.321720 2.034440E+00
24.824290 1.443220 1.883780E+00
24.749292 1.634100 1.785990E+00
24.674746 1.881780 1.780540E+00
24.600648 2.149270 1.909760E+00
24.526993 2.361210 2.207100E+00
24.453778 2.389590 2.647880E+00
24.380999 2.137910 3.066850E+00
24.308652 1.713240 3.266470E+00
24.236733 1.314210 3.243600E+00
24.165238 1.021620 3.108500E+00
24.094164 0.824220 2.941050E+00
24.023507 0.692200 2.774790E+00
23.953263 0.602530 2.619920E+00
23.883428 0.540590 2.477860E+00
23.814000 0.497490 2.347330E+00
23.744974 0.467830 2.226380E+00
23.676347 0.448300 2.113130E+00
23.608115 0.436910 2.005910E+00
23.540276 0.432520 1.903360E+00
23.472825 0.434610 1.804330E+00
23.405760 0.443130 1.707910E+00
23.339077 0.458450 1.613400E+00
23.272773 0.481350 1.520430E+00
23.206844 0.512980 1.429030E+00
23.141288 0.554900 1.339810E+00
23.076102 0.608790 1.254270E+00
23.011281 0.676150 1.175100E+00
22.946824 0.757500 1.106090E+00
22.882727 0.851750 1.051660E+00
22.818986 0.956060 1.015770E+00
22.755600 1.066450 1.001210E+00
22.692565 1.178710 1.009640E+00
22.629879 1.288630 1.042170E+00
22.567538 1.391650 1.099870E+00
22.505539 1.481980 1.183620E+00
22.443880 1.551860 1.293130E+00
22.382558 1.591470 1.425040E+00
22.321570 1.590650 1.570630E+00
22.260914 1.542860 1.714700E+00
22.200586 1.450160 1.838390E+00
22.140585 1.324830 1.925870E+00
22.080907 1.184900 1.970490E+00
22.021550 1.047030 1.975370E+00
21.962511 0.922000 1.949280E+00
21.903787 0.814450 1.901960E+00
21.845377 0.724850 1.841520E+00
21.787278 0.651560 1.773690E+00
21.729487 0.592250 1.702190E+00
21.672001 0.544630 1.629210E+00
21.614819 0.506700 1.556000E+00
21.557938 0.476840 1.483150E+00
21.501356 0.453790 1.410870E+00
21.445070 0.436640 1.339140E+00
21.389077 0.424760 1.267790E+00
21.333377 0.417750 1.196590E+00
21.277965 0.415480 1.125250E+00
21.222841 0.418020 1.053500E+00
21.168002 0.425720 9.811100E-01
21.113445 0.439170 9.080100E-01
21.059169 0.459250 8.343300E-01
21.005171 0.487080 7.607100E-01
20.951449 0.523740 6.884100E-01
20.898002 0.569900 6.195200E-01
20.844826 0.625190 5.565400E-01
20.791921 0.687990 5.016800E-01
20.739283 0.755950 4.560600E-01
20.686911 0.826810 4.196000E-01
20.634803 0.899030 3.914600E-01
20.582957 0.971830 3.706500E-01
20.531370 1.045070 3.563200E-01
20.480042 1.119030 3.479700E-01
20.428970 1.194280 3.455100E-01
20.378151 1.271610 3.493400E-01
20.327585 1.351990 3.605200E-01
20.277269 1.436440 3.810600E-01
20.227202 1.525830 4.144600E-01
20.177381 1.620140 4.666400E-01
20.127806 1.716400 5.472500E-01
20.078473 1.803260 6.701800E-01
20.029381 1.850080 8.470400E-01
19.980529 1.802210 1.058050E+00
19.931915 1.631590 1.217020E+00
19.883536 1.412050 1.239990E+00
19.835392 1.247020 1.146180E+00
19.787480 1.173320 1.006260E+00
19.739800 1.177540 8.729700E-01
19.692348 1.232270 7.707900E-01
19.645125 1.313320 7.047600E-01
19.598127 1.405370 6.707700E-01
19.551353 1.500820 6.631100E-01
19.504802 1.596460 6.776700E-01
19.458473 1.690880 7.125600E-01
19.412363 1.782910 7.677900E-01
19.366470 1.870630 8.448600E-01
19.320795 1.950460 9.462400E-01
19.275334 2.016150 1.074510E+00
19.230087 2.058040 1.230600E+00
19.185052 2.063130 1.410880E+00
19.140227 2.017940 1.603670E+00
19.095611 1.914890 1.788060E+00
19.051202 1.759430 1.939120E+00
19.007000 1.570880 2.038430E+00
18.963003 1.374080 2.081710E+00
18.919208 1.189130 2.077310E+00
18.875615 1.026820 2.038920E+00
18.832223 0.890080 1.979520E+00
18.789030 0.777290 1.908870E+00
18.746035 0.685070 1.833370E+00
18.703235 0.609760 1.756840E+00
18.660631 0.548070 1.681460E+00
18.618221 0.497300 1.608320E+00
18.576003 0.455280 1.537890E+00
18.533976 0.420310 1.470300E+00
18.492138 0.391080 1.405480E+00
18.450489 0.366560 1.343240E+00
18.409027 0.345940 1.283360E+00
18.367752 0.328620 1.225580E+00
18.326660 0.314110 1.169660E+00
18.285753 0.302030 1.115340E+00
18.245027 0.292090 1.062400E+00
18.204483 0.284100 1.010590E+00
18.164118 0.277890 9.597100E-01
18.123932 0.273370 9.095500E-01
18.083924 0.270500 8.599000E-01
18.044091 0.269290 8.105900E-01
18.004434 0.269820 7.614300E-01
17.964951 0.272230 7.122700E-01
17.925640 0.276730 6.629700E-01
17.886501 0.283630 6.134700E-01
17.847533 0.293360 5.637800E-01
17.808734 0.306430 5.141000E-01
17.770103 0.323400 4.649000E-01
17.731640 0.344730 4.169800E-01
17.693342 0.370570 3.715100E-01
17.655210 0.400450 3.297600E-01
17.617242 0.433310 2.927300E-01
17.579437 0.467770 2.608200E-01
17.541793 0.502540 2.338100E-01
17.504311 0.536690 2.111200E-01
17.466988 0.569660 1.920300E-01
17.429825 0.601170 1.758800E-01
17.392819 0.631130 1.621100E-01
17.355969 0.659550 1.502600E-01
17.319276 0.686500 1.399700E-01
17.282737 0.712080 1.309600E-01
17.246353 0.736370 1.230100E-01
17.210121 0.759480 1.159500E-01
17.174041 0.781510 1.096400E-01
17.138112 0.802530 1.039600E-01
17.102333 0.822630 9.883000E-02
17.066703 0.841880 9.417000E-02
17.031222 0.860340 8.991000E-02
16.995887 0.878070 8.602000E-02
16.960699 0.895130 8.244000E-02
16.925656 0.911560 7.914000E-02
16.890758 0.927410 7.609000E-02
16.856003 0.942710 7.327000E-02
16.821392 0.957500 7.064000E-02
16.786921 0.971820 6.819000E-02
16.752592 0.985680 6.590000E-02
16.718403 0.999130 6.376000E-02
16.684354 1.012190 6.175000E-02
16.650442 1.024870 5.986000E-02
16.616669 1.037200 5.809000E-02
16.583032 1.049200 5.642000E-02
16.549531 1.060890 5.484000E-02
16.516165 1.072280 5.335000E-02
16.482933 1.083390 5.194000E-02
16.449835 1.094230 5.060000E-02
16.416869 1.104820 4.933000E-02
16.384036 1.115160 4.812000E-02
16.351333 1.125280 4.698000E-02
16.318760 1.135180 4.589000E-02
16.286318 1.144870 4.485000E-02
16.254004 1.154360 4.386000E-02
16.221817 1.163660 4.292000E-02
16.189758 1.172770 4.201000E-02
16.157826 1.181720 4.115000E-02
16.126019 1.190500 4.033000E-02
16.094338 1.199110 3.954000E-02
16.062780 1.207580 3.879000E-02
16.031346 1.215900 3.806000E-02
16.000035 1.224080 3.737000E-02
15.968846 1.232130 3.670000E-02
15.937778 1.240040 3.606000E-02
15.906831 1.247830 3.545000E-02
15.876004 1.255510 3.486000E-02
15.845296 1.263070 3.430000E-02
15.814706 1.270520 3.375000E-02
15.784235 1.277860 3.323000E-02
15.753881 1.285100 3.272000E-02
15.723643 1.292240 3.224000E-02
15.693521 1.299290 3.177000E-02
15.663514 1.306250 3.132000E-02
15.633622 1.313120 3.089000E-02
15.603844 1.319910 3.048000E-02
15.574179 1.326620 3.007000E-02
15.544626 1.333250 2.969000E-02
15.515185 1.339800 2.931000E-02
15.485856 1.346280 2.896000E-02
15.456638 1.352690 2.861000E-02
15.427529 1.359040 2.828000E-02
15.398530 1.365320 2.795000E-02
15.369640 1.371540 2.764000E-02
15.340858 1.377700 2.734000E-02
15.312183 1.383810 2.706000E-02
15.283616 1.389850 2.678000E-02
15.255155 1.395850 2.651000E-02
15.226799 1.401790 2.625000E-02
15.198549 1.407690 2.600000E-02
15.170404 1.413540 2.577000E-02
15.142363 1.419340 2.554000E-02
15.114425 1.425100 2.531000E-02
15.086590 1.430820 2.510000E-02
15.058857 1.436500 2.490000E-02
15.031226 1.442140 2.470000E-02
15.003696 1.447740 2.451000E-02
14.976267 1.453310 2.433000E-02
14.948938 1.458850 2.415000E-02
14.921709 1.464350 2.399000E-02
14.894578 1.469830 2.383000E-02
14.867547 1.475280 2.368000E-02
14.840613 1.480700 2.353000E-02
14.813776 1.486090 2.339000E-02
14.787036 1.491460 2.326000E-02
14.760393 1.496810 2.313000E-02
14.733846 1.502140 2.301000E-02
14.707394 1.507450 2.290000E-02
14.681036 1.512740 2.279000E-02
14.654773 1.518010 2.269000E-02
14.628604 1.523260 2.259000E-02
14.602528 1.528500 2.250000E-02
14.576545 1.533730 2.242000E-02
14.550654 1.538950 2.234000E-02
14.524855 1.544150 2.227000E-02
14.499147 1.549350 2.220000E-02
14.473530 1.554540 2.214000E-02
14.448004 1.559720 2.208000E-02
14.422567 1.564890 2.203000E-02
14.397220 1.570060 2.199000E-02
14.371962 1.575230 2.195000E-02
14.346792 1.580400 2.192000E-02
14.321710 1.585560 2.189000E-02
14.296716 1.590730 2.187000E-02
14.271809 1.595900 2.185000E-02
14.246988 1.601070 2.184000E-02
14.222254 1.606240 2.183000E-02
14.197605 1.611420 2.183000E-02
14.173042 1.616610 2.183000E-02
14.148564 1.621810 2.184000E-02
14.124170 1.627020 2.186000E-02
14.099859 1.632230 2.188000E-02
14.075633 1.637460 2.191000E-02
14.051489 1.642710 2.194000E-02
14.027429 1.647970 2.198000E-02
14.003450 1.653240 2.202000E-02
13.979553 1.658530 2.207000E-02
13.955738 1.663850 2.213000E-02
13.932004 1.669180 2.219000E-02
13.908350 1.674530 2.226000E-02
13.884777 1.679910 2.233000E-02
13.861283 1.685320 2.242000E-02
13.837869 1.690750 2.250000E-02
13.814534 1.696200 2.260000E-02
13.791277 1.701690 2.270000E-02
13.768098 1.707210 2.280000E-02
13.744997 1.712770 2.292000E-02
13.721974 1.718360 2.304000E-02
13.699027 1.723980 2.317000E-02
13.676158 1.729650 2.331000E-02
13.653364 1.735350 2.345000E-02
13.630646 1.741100 2.360000E-02
13.608004 1.746890 2.376000E-02
13.585437 1.752730 2.393000E-02
13.562944 1.758620 2.411000E-02
13.540526 1.764560 2.429000E-02
13.518182 1.770550 2.449000E-02
13.495912 1.776590 2.469000E-02
13.473715 1.782700 2.491000E-02
13.451590 1.788860 2.513000E-02
13.429538 1.795090 2.537000E-02
13.407559 1.801380 2.561000E-02
13.385651 1.807740 2.587000E-02
13.363815 1.814170 2.614000E-02
13.342050 1.820680 2.641000E-02
13.320355 1.827260 2.671000E-02
13.298731 1.833920 2.701000E-02
13.277178 1.840670 2.733000E-02
13.255693 1.847500 2.766000E-02
