#Optical constants of natural hibonite from Antsirabe E||c
#
#wavelength (micron) n k
10000 4.20164 0.0037
5000 4.20175 0.0074
3333.33333333 4.20192 0.0111
2500 4.20217 0.01481
2000 4.20249 0.01853
1666.66666667 4.20287 0.02225
1428.57142857 4.20333 0.02598
1250 4.20386 0.02972
1111.11111111 4.20446 0.03347
1000 4.20513 0.03724
909.09090909 4.20588 0.04102
833.33333333 4.20669 0.04481
769.23076923 4.20758 0.04863
714.28571429 4.20854 0.05246
666.66666667 4.20957 0.05632
625 4.21067 0.0602
588.23529412 4.21185 0.0641
555.55555556 4.2131 0.06803
526.31578947 4.21442 0.07199
500 4.21581 0.07598
476.19047619 4.21728 0.08
454.54545455 4.21883 0.08405
434.7826087 4.22044 0.08814
416.66666667 4.22214 0.09226
400 4.22391 0.09643
384.61538462 4.22575 0.10063
370.37037037 4.22767 0.10488
357.14285714 4.22967 0.10918
344.82758621 4.23174 0.11352
333.33333333 4.23389 0.11791
322.58064516 4.23612 0.12236
312.5 4.23843 0.12686
303.03030303 4.24082 0.13142
294.11764706 4.24328 0.13604
285.71428571 4.24583 0.14072
277.77777778 4.24845 0.14547
270.27027027 4.25116 0.15028
263.15789474 4.25395 0.15517
256.41025641 4.25682 0.16013
250 4.25977 0.16517
243.90243902 4.26281 0.17029
238.0952381 4.26593 0.1755
232.55813953 4.26913 0.18079
227.27272727 4.27242 0.18618
222.22222222 4.27579 0.19166
217.39130435 4.27924 0.19725
212.76595745 4.28279 0.20293
208.33333333 4.28641 0.20873
204.08163265 4.29013 0.21464
200 4.29393 0.22067
196.07843137 4.29781 0.22682
192.30769231 4.30179 0.2331
188.67924528 4.30584 0.23951
185.18518519 4.30999 0.24607
181.81818182 4.31422 0.25277
178.57142857 4.31854 0.25962
175.43859649 4.32295 0.26663
172.4137931 4.32744 0.27381
169.49152542 4.33201 0.28116
166.66666667 4.33667 0.28869
163.93442623 4.34141 0.2964
161.29032258 4.34623 0.30432
158.73015873 4.35113 0.31244
156.25 4.35611 0.32078
153.84615385 4.36116 0.32934
151.51515152 4.36629 0.33813
149.25373134 4.37148 0.34717
147.05882353 4.37675 0.35646
144.92753623 4.38207 0.36602
142.85714286 4.38745 0.37586
140.84507042 4.39289 0.38599
138.88888889 4.39837 0.39643
136.98630137 4.40389 0.40718
135.13513514 4.40945 0.41827
133.33333333 4.41502 0.4297
131.57894737 4.42062 0.44149
129.87012987 4.42621 0.45367
128.20512821 4.4318 0.46623
126.58227848 4.43736 0.47921
125 4.44288 0.49261
123.45679012 4.44835 0.50647
121.95121951 4.45375 0.52078
120.48192771 4.45905 0.53558
119.04761905 4.46424 0.55087
117.64705882 4.46928 0.56669
116.27906977 4.47414 0.58304
114.94252874 4.47881 0.59994
113.63636364 4.48323 0.61742
112.35955056 4.48738 0.63548
111.11111111 4.49121 0.65413
109.89010989 4.49468 0.6734
108.69565217 4.49773 0.6933
107.52688172 4.50032 0.71381
106.38297872 4.50239 0.73497
105.26315789 4.50388 0.75675
104.16666667 4.50471 0.77915
103.09278351 4.50484 0.80217
102.04081633 4.50417 0.82578
101.01010101 4.50264 0.84996
100 4.50017 0.87468
99.00990099 4.49669 0.89988
98.03921569 4.49211 0.92551
97.08737864 4.48635 0.9515
96.15384615 4.47936 0.97779
95.23809524 4.47104 1.00427
94.33962264 4.46136 1.03085
93.45794393 4.45024 1.05741
92.59259259 4.43765 1.08381
91.74311927 4.42357 1.10994
90.90909091 4.40798 1.13564
90.09009009 4.39088 1.16076
89.28571429 4.37231 1.18514
88.49557522 4.35232 1.20863
87.71929825 4.33096 1.23108
86.95652174 4.30834 1.25234
86.20689655 4.28457 1.27228
85.47008547 4.25978 1.29078
84.74576271 4.23412 1.30773
84.03361345 4.20775 1.32306
83.33333333 4.18085 1.33671
82.6446281 4.1536 1.34864
81.96721311 4.12618 1.35885
81.30081301 4.09876 1.36736
80.64516129 4.07153 1.3742
80 4.04464 1.37945
79.36507937 4.01824 1.38319
78.74015748 3.99247 1.38552
78.125 3.96742 1.38656
77.51937984 3.94321 1.38642
76.92307692 3.9199 1.38525
76.33587786 3.89754 1.38316
75.75757576 3.87617 1.38031
75.18796992 3.8558 1.37681
74.62686567 3.83643 1.37279
74.07407407 3.81805 1.36836
73.52941176 3.80064 1.36365
72.99270073 3.78414 1.35874
72.46376812 3.76852 1.35373
71.94244604 3.75372 1.34868
71.42857143 3.73968 1.34368
70.92198582 3.72634 1.33877
70.42253521 3.71364 1.33401
69.93006993 3.70152 1.32942
69.44444444 3.6899 1.32504
68.96551724 3.67873 1.32088
68.49315068 3.66795 1.31697
68.02721088 3.6575 1.31329
67.56756757 3.64732 1.30987
67.11409396 3.63737 1.30667
66.66666667 3.62759 1.30371
66.22516556 3.61795 1.30096
65.78947368 3.6084 1.29841
65.35947712 3.59892 1.29603
64.93506494 3.58946 1.2938
64.51612903 3.58 1.2917
64.1025641 3.57053 1.28971
63.69426752 3.56101 1.28779
63.29113924 3.55143 1.28592
62.89308176 3.54178 1.28407
62.5 3.53206 1.28221
62.11180124 3.52224 1.28032
61.72839506 3.51234 1.27837
61.34969325 3.50236 1.27633
60.97560976 3.49228 1.27418
60.60606061 3.48213 1.2719
60.24096386 3.47189 1.26945
59.88023952 3.4616 1.26683
59.52380952 3.45125 1.26401
59.17159763 3.44086 1.26096
58.82352941 3.43044 1.25768
58.47953216 3.42001 1.25415
58.13953488 3.40958 1.25036
57.80346821 3.39917 1.24629
57.47126437 3.38881 1.24193
57.14285714 3.37851 1.23728
56.81818182 3.36828 1.23233
56.49717514 3.35816 1.22707
56.17977528 3.34815 1.2215
55.86592179 3.33829 1.21563
55.55555556 3.32858 1.20944
55.24861878 3.31906 1.20295
54.94505495 3.30973 1.19616
54.64480874 3.30063 1.18906
54.34782609 3.29176 1.18168
54.05405405 3.28314 1.17401
53.76344086 3.2748 1.16607
53.47593583 3.26674 1.15787
53.19148936 3.25899 1.14941
52.91005291 3.25156 1.14071
52.63157895 3.24446 1.13179
52.35602094 3.2377 1.12265
52.08333333 3.23129 1.11331
51.8134715 3.22525 1.1038
51.54639175 3.21959 1.09411
51.28205128 3.21431 1.08427
51.02040816 3.20942 1.0743
50.76142132 3.20492 1.06421
50.50505051 3.20082 1.05401
50.25125628 3.19713 1.04373
50 3.19385 1.03339
49.75124378 3.19097 1.02299
49.5049505 3.1885 1.01255
49.26108374 3.18645 1.0021
49.01960784 3.1848 0.99164
48.7804878 3.18356 0.98119
48.54368932 3.18272 0.97077
48.30917874 3.18229 0.96039
48.07692308 3.18225 0.95006
47.84688995 3.18261 0.93981
47.61904762 3.18336 0.92964
47.39336493 3.18449 0.91956
47.16981132 3.186 0.90959
46.94835681 3.18788 0.89974
46.72897196 3.19012 0.89003
46.51162791 3.19272 0.88045
46.2962963 3.19568 0.87103
46.08294931 3.19897 0.86176
45.87155963 3.20261 0.85267
45.66210046 3.20657 0.84376
45.45454545 3.21085 0.83503
45.24886878 3.21545 0.8265
45.04504505 3.22035 0.81817
44.84304933 3.22555 0.81005
44.64285714 3.23104 0.80214
44.44444444 3.23681 0.79446
44.24778761 3.24285 0.787
44.05286344 3.24917 0.77978
43.85964912 3.25574 0.77279
43.66812227 3.26256 0.76604
43.47826087 3.26963 0.75955
43.29004329 3.27694 0.7533
43.10344828 3.28449 0.74731
42.91845494 3.29225 0.74158
42.73504274 3.30024 0.73611
42.55319149 3.30843 0.73091
42.37288136 3.31684 0.72598
42.19409283 3.32544 0.72132
42.01680672 3.33424 0.71695
41.84100418 3.34322 0.71285
41.66666667 3.35239 0.70905
41.49377593 3.36174 0.70553
41.32231405 3.37125 0.70231
41.15226337 3.38093 0.69938
40.98360656 3.39077 0.69676
40.81632653 3.40077 0.69444
40.6504065 3.41091 0.69244
40.48582996 3.4212 0.69075
40.32258065 3.43163 0.68939
40.16064257 3.44218 0.68835
40 3.45287 0.68764
39.84063745 3.46367 0.68727
39.68253968 3.47459 0.68725
39.5256917 3.48561 0.68758
39.37007874 3.49673 0.68826
39.21568627 3.50794 0.68931
39.0625 3.51924 0.69073
38.91050584 3.53061 0.69253
38.75968992 3.54204 0.69472
38.61003861 3.55353 0.6973
38.46153846 3.56506 0.70028
38.31417625 3.57663 0.70368
38.16793893 3.58821 0.7075
38.02281369 3.5998 0.71175
37.87878788 3.61138 0.71643
37.73584906 3.62292 0.72156
37.59398496 3.63443 0.72714
37.45318352 3.64587 0.73319
37.31343284 3.65722 0.73971
37.17472119 3.66846 0.7467
37.03703704 3.67957 0.75417
36.900369 3.69052 0.76212
36.76470588 3.70127 0.77056
36.63003663 3.71181 0.77949
36.49635036 3.72209 0.78891
36.36363636 3.73208 0.79881
36.23188406 3.74175 0.80918
36.10108303 3.75105 0.82002
35.97122302 3.75995 0.8313
35.84229391 3.76841 0.84302
35.71428571 3.77638 0.85514
35.58718861 3.78382 0.86764
35.46099291 3.79069 0.88047
35.33568905 3.79696 0.89361
35.21126761 3.80258 0.90699
35.0877193 3.80751 0.92057
34.96503497 3.81174 0.93427
34.84320557 3.81524 0.94804
34.72222222 3.81798 0.96179
34.60207612 3.81997 0.97544
34.48275862 3.8212 0.9889
34.36426117 3.82168 1.00209
34.24657534 3.82144 1.01491
34.12969283 3.82053 1.02726
34.01360544 3.81899 1.03905
33.89830508 3.81689 1.05019
33.78378378 3.81431 1.0606
33.67003367 3.81136 1.0702
33.55704698 3.80814 1.07893
33.44481605 3.80478 1.08674
33.33333333 3.80141 1.0936
33.22259136 3.79817 1.09948
33.11258278 3.79521 1.10438
33.00330033 3.79268 1.10834
32.89473684 3.79074 1.11139
32.78688525 3.78952 1.11359
32.67973856 3.78918 1.11503
32.5732899 3.78985 1.1158
32.46753247 3.79165 1.11603
32.36245955 3.7947 1.11585
32.25806452 3.79911 1.11541
32.15434084 3.80495 1.11488
32.05128205 3.81231 1.11444
31.94888179 3.82124 1.11427
31.84713376 3.83179 1.11457
31.74603175 3.84397 1.11556
31.64556962 3.85781 1.11746
31.54574132 3.8733 1.1205
31.44654088 3.89041 1.12494
31.34796238 3.90911 1.13102
31.25 3.92931 1.13905
31.15264798 3.95094 1.14932
31.05590062 3.97386 1.16215
30.95975232 3.9979 1.1779
30.86419753 4.02283 1.19694
30.76923077 4.04835 1.21968
30.67484663 4.07409 1.24654
30.58103976 4.09954 1.27796
30.48780488 4.12408 1.31436
30.39513678 4.1469 1.35616
30.3030303 4.16701 1.40366
30.21148036 4.18319 1.45704
30.12048193 4.19402 1.51625
30.03003003 4.19786 1.5809
29.94011976 4.19294 1.65012
29.85074627 4.17753 1.72247
29.76190476 4.15009 1.79585
29.6735905 4.10961 1.8675
29.58579882 4.05587 1.93417
29.49852507 3.9897 1.9924
29.41176471 3.91306 2.03895
29.3255132 3.82896 2.07128
29.23976608 3.74107 2.0879
29.15451895 3.65334 2.08854
29.06976744 3.56942 2.07414
28.98550725 3.49237 2.04656
28.9017341 3.4244 2.00825
28.8184438 3.36682 1.96193
28.73563218 3.32017 1.91026
28.65329513 3.28431 1.85564
28.57142857 3.25864 1.80012
28.49002849 3.24226 1.74534
28.40909091 3.23409 1.69253
28.3286119 3.23304 1.64257
28.24858757 3.238 1.59603
28.16901408 3.24798 1.55324
28.08988764 3.26206 1.51434
28.01120448 3.27945 1.47934
27.93296089 3.29949 1.44816
27.8551532 3.32161 1.42064
27.77777778 3.34534 1.39661
27.70083102 3.37028 1.37586
27.62430939 3.39614 1.35819
27.54820937 3.42266 1.3434
27.47252747 3.44963 1.33129
27.39726027 3.4769 1.32168
27.32240437 3.50433 1.3144
27.2479564 3.53183 1.30932
27.17391304 3.55931 1.30629
27.100271 3.58671 1.30519
27.02702703 3.61397 1.30592
26.9541779 3.64106 1.30839
26.88172043 3.66794 1.3125
26.80965147 3.69458 1.3182
26.73796791 3.72097 1.32541
26.66666667 3.74707 1.33409
26.59574468 3.77288 1.34419
26.52519894 3.79837 1.35567
26.45502646 3.82353 1.36851
26.38522427 3.84835 1.38267
26.31578947 3.87279 1.39813
26.24671916 3.89684 1.41489
26.17801047 3.92049 1.43291
26.10966057 3.9437 1.45221
26.04166667 3.96645 1.47276
25.97402597 3.98871 1.49458
25.90673575 4.01046 1.51765
25.83979328 4.03165 1.54197
25.77319588 4.05224 1.56754
25.70694087 4.07221 1.59437
25.64102564 4.09149 1.62246
25.57544757 4.11004 1.65181
25.51020408 4.12781 1.68241
25.44529262 4.14473 1.71427
25.38071066 4.16076 1.74738
25.3164557 4.17582 1.78174
25.25252525 4.18984 1.81733
25.18891688 4.20274 1.85414
25.12562814 4.21446 1.89215
25.06265664 4.2249 1.93134
25 4.23399 1.97168
24.93765586 4.24163 2.01312
24.87562189 4.24774 2.05563
24.81389578 4.25222 2.09916
24.75247525 4.25499 2.14363
24.69135802 4.25594 2.18897
24.63054187 4.255 2.23511
24.57002457 4.25206 2.28196
24.50980392 4.24706 2.3294
24.44987775 4.2399 2.37732
24.3902439 4.23051 2.4256
24.33090024 4.21884 2.4741
24.27184466 4.20482 2.52267
24.21307506 4.18841 2.57116
24.15458937 4.16958 2.61941
24.09638554 4.14832 2.66723
24.03846154 4.12462 2.71446
23.98081535 4.09851 2.76092
23.92344498 4.07002 2.80641
23.86634845 4.0392 2.85077
23.80952381 4.00612 2.8938
23.75296912 3.97087 2.93534
23.69668246 3.93357 2.97523
23.64066194 3.89434 3.0133
23.58490566 3.85331 3.04941
23.52941176 3.81065 3.08344
23.4741784 3.76653 3.11526
23.41920375 3.72111 3.1448
23.36448598 3.67459 3.17196
23.31002331 3.62717 3.19669
23.25581395 3.57902 3.21896
23.20185615 3.53036 3.23875
23.14814815 3.48137 3.25605
23.09468822 3.43225 3.27089
23.04147465 3.38317 3.2833
22.98850575 3.33431 3.29333
22.93577982 3.28585 3.30106
22.88329519 3.23793 3.30657
22.83105023 3.1907 3.30994
22.77904328 3.1443 3.31129
22.72727273 3.09884 3.31071
22.67573696 3.05443 3.30833
22.62443439 3.01117 3.30428
22.57336343 2.96913 3.29867
22.52252252 2.92839 3.29164
22.47191011 2.889 3.28332
22.42152466 2.851 3.27383
22.37136465 2.81442 3.26331
22.32142857 2.7793 3.25189
22.27171492 2.74564 3.23968
22.22222222 2.71344 3.22682
22.172949 2.68269 3.21342
22.12389381 2.65339 3.1996
22.07505519 2.6255 3.18547
22.02643172 2.599 3.17113
21.97802198 2.57385 3.15668
21.92982456 2.55001 3.14223
21.88183807 2.52743 3.12785
21.83406114 2.50606 3.11364
21.78649237 2.48582 3.09967
21.73913043 2.46667 3.08601
21.69197397 2.44854 3.07273
21.64502165 2.43135 3.05989
21.59827214 2.41503 3.04754
21.55172414 2.39951 3.03574
21.50537634 2.3847 3.0245
21.45922747 2.37053 3.01388
21.41327623 2.35692 3.00389
21.36752137 2.34378 2.99455
21.32196162 2.33104 2.98587
21.27659574 2.31861 2.97787
21.23142251 2.30642 2.97053
21.18644068 2.29439 2.96384
21.14164905 2.28244 2.95779
21.09704641 2.2705 2.95236
21.05263158 2.25851 2.94752
21.00840336 2.24639 2.94323
20.96436059 2.23408 2.93946
20.92050209 2.22154 2.93615
20.87682672 2.2087 2.93327
20.83333333 2.19554 2.93076
20.79002079 2.18199 2.92856
20.74688797 2.16805 2.92661
20.70393375 2.15367 2.92486
20.66115702 2.13883 2.92324
20.6185567 2.12354 2.92169
20.57613169 2.10777 2.92015
20.5338809 2.09152 2.91856
20.49180328 2.07481 2.91685
20.44989775 2.05764 2.91497
20.40816327 2.04003 2.91287
20.36659878 2.02201 2.91048
20.32520325 2.00359 2.90776
20.28397566 1.98481 2.90467
20.24291498 1.9657 2.90117
20.2020202 1.94631 2.8972
20.16129032 1.92666 2.89275
20.12072435 1.90681 2.88779
20.08032129 1.88679 2.88229
20.04008016 1.86665 2.87623
20 1.84644 2.86959
19.96007984 1.82619 2.86238
19.92031873 1.80596 2.85457
19.88071571 1.78579 2.84618
19.84126984 1.76572 2.83719
19.8019802 1.7458 2.82762
19.76284585 1.72606 2.81748
19.72386588 1.70654 2.80677
19.68503937 1.68727 2.79551
19.64636542 1.66831 2.78371
19.60784314 1.64966 2.7714
19.56947162 1.63137 2.75859
19.53125 1.61347 2.74531
19.49317739 1.59598 2.73157
19.45525292 1.57891 2.7174
19.41747573 1.56231 2.70283
19.37984496 1.54618 2.68788
19.34235977 1.53054 2.67257
19.30501931 1.51542 2.65694
19.26782274 1.50082 2.641
19.23076923 1.48676 2.62479
19.19385797 1.47325 2.60834
19.15708812 1.46029 2.59166
19.12045889 1.44791 2.57478
19.08396947 1.43611 2.55774
19.04761905 1.42488 2.54056
19.01140684 1.41425 2.52327
18.97533207 1.40421 2.50589
18.93939394 1.39476 2.48845
18.90359168 1.38591 2.47098
18.86792453 1.37767 2.4535
18.83239171 1.37002 2.43605
18.79699248 1.36298 2.41865
18.76172608 1.35653 2.40133
18.72659176 1.35068 2.38412
18.69158879 1.34542 2.36705
18.65671642 1.34074 2.35014
18.62197393 1.33665 2.33343
18.58736059 1.33313 2.31694
18.5528757 1.33018 2.30072
18.51851852 1.32778 2.28478
18.48428835 1.32591 2.26916
18.4501845 1.32458 2.25389
18.41620626 1.32375 2.23901
18.38235294 1.32341 2.22454
18.34862385 1.32353 2.21052
18.31501832 1.3241 2.19698
18.28153565 1.32508 2.18395
18.24817518 1.32644 2.17146
18.21493625 1.32816 2.15954
18.18181818 1.33018 2.14822
18.14882033 1.33248 2.13752
18.11594203 1.33501 2.12747
18.08318264 1.33771 2.11808
18.05054152 1.34055 2.10938
18.01801802 1.34346 2.10138
17.98561151 1.3464 2.09409
17.95332136 1.34929 2.0875
17.92114695 1.35209 2.08164
17.88908766 1.35472 2.07647
17.85714286 1.35713 2.072
17.82531194 1.35925 2.06821
17.79359431 1.36102 2.06507
17.76198934 1.36238 2.06254
17.73049645 1.36327 2.06059
17.69911504 1.36363 2.05917
17.66784452 1.36341 2.05824
17.6366843 1.36256 2.05772
17.6056338 1.36104 2.05756
17.57469244 1.35882 2.05769
17.54385965 1.35587 2.05804
17.51313485 1.35216 2.05852
17.48251748 1.3477 2.05906
17.45200698 1.34247 2.05958
17.42160279 1.33649 2.05999
17.39130435 1.32976 2.06023
17.36111111 1.32232 2.06022
17.33102253 1.31419 2.05988
17.30103806 1.30542 2.05914
17.27115717 1.29604 2.05795
17.24137931 1.28612 2.05625
17.21170396 1.27571 2.05398
17.18213058 1.26487 2.05111
17.15265866 1.25366 2.04761
17.12328767 1.24215 2.04344
17.09401709 1.23041 2.03859
17.06484642 1.21849 2.03304
17.03577513 1.20647 2.02679
17.00680272 1.1944 2.01984
16.97792869 1.18236 2.0122
16.94915254 1.17038 2.00387
16.92047377 1.15853 1.99488
16.89189189 1.14686 1.98524
16.86340641 1.13541 1.97498
16.83501684 1.12422 1.96413
16.80672269 1.11334 1.95271
16.77852349 1.1028 1.94075
16.75041876 1.09263 1.92828
16.72240803 1.08285 1.91534
16.69449082 1.07349 1.90195
16.66666667 1.06457 1.88815
16.63893511 1.05611 1.87397
16.61129568 1.04812 1.85945
16.58374793 1.04062 1.8446
16.55629139 1.03361 1.82946
16.52892562 1.02711 1.81406
16.50165017 1.02112 1.79843
16.47446458 1.01566 1.78259
16.44736842 1.01071 1.76657
16.42036125 1.0063 1.7504
16.39344262 1.00241 1.73409
16.36661211 0.99905 1.71768
16.33986928 0.99623 1.70119
16.3132137 0.99394 1.68464
16.28664495 0.99219 1.66805
16.2601626 0.99096 1.65144
16.23376623 0.99028 1.63483
16.20745543 0.99012 1.61825
16.18122977 0.9905 1.60171
16.15508885 0.9914 1.58524
16.12903226 0.99283 1.56885
16.10305958 0.99479 1.55257
16.07717042 0.99727 1.53642
16.05136437 1.00028 1.52042
16.02564103 1.00379 1.50458
16 1.00782 1.48894
15.97444089 1.01236 1.4735
15.94896332 1.01739 1.45831
15.92356688 1.02293 1.44336
15.89825119 1.02895 1.42869
15.87301587 1.03544 1.41432
15.84786054 1.04241 1.40028
15.82278481 1.04984 1.38658
15.79778831 1.05771 1.37325
15.77287066 1.06601 1.36031
15.7480315 1.07473 1.34778
15.72327044 1.08385 1.33568
15.69858713 1.09335 1.32404
15.67398119 1.10322 1.31288
15.64945227 1.11343 1.30222
15.625 1.12396 1.29207
15.60062402 1.13478 1.28246
15.57632399 1.14587 1.27341
15.55209953 1.1572 1.26492
15.52795031 1.16875 1.25701
15.50387597 1.18047 1.24971
15.47987616 1.19235 1.24301
15.45595054 1.20435 1.23692
15.43209877 1.21643 1.23147
15.40832049 1.22856 1.22664
15.38461538 1.2407 1.22245
15.3609831 1.25283 1.21889
15.33742331 1.26489 1.21596
15.31393568 1.27685 1.21366
15.29051988 1.28868 1.21198
15.26717557 1.30034 1.21092
15.24390244 1.31179 1.21046
15.22070015 1.32299 1.21057
15.19756839 1.33391 1.21126
15.17450683 1.3445 1.21249
15.15151515 1.35474 1.21423
15.12859304 1.36459 1.21647
15.10574018 1.37401 1.21917
15.08295626 1.38298 1.22229
15.06024096 1.39147 1.22579
15.03759398 1.39946 1.22964
15.01501502 1.40692 1.23379
14.99250375 1.41384 1.2382
14.97005988 1.42019 1.24281
14.94768311 1.42599 1.24757
14.92537313 1.4312 1.25243
14.90312966 1.43585 1.25733
14.88095238 1.43994 1.26222
14.85884101 1.44347 1.26705
14.83679525 1.44647 1.27175
14.81481481 1.44897 1.27628
14.79289941 1.45098 1.28059
14.77104874 1.45256 1.28462
14.74926254 1.45373 1.28832
14.7275405 1.45456 1.29167
14.70588235 1.45508 1.29462
14.68428781 1.45536 1.29714
14.6627566 1.45546 1.29921
14.64128843 1.45544 1.30081
14.61988304 1.45536 1.30193
14.59854015 1.45531 1.30256
14.57725948 1.45533 1.3027
14.55604076 1.4555 1.30238
14.53488372 1.4559 1.3016
14.5137881 1.45657 1.30039
14.49275362 1.4576 1.29879
14.47178003 1.45903 1.29682
14.45086705 1.46092 1.29455
14.43001443 1.46333 1.29201
14.4092219 1.46631 1.28926
14.38848921 1.46989 1.28638
14.36781609 1.47411 1.28341
14.3472023 1.47901 1.28043
14.32664756 1.4846 1.27752
14.30615165 1.49091 1.27475
14.28571429 1.49795 1.2722
14.26533524 1.50572 1.26994
14.24501425 1.51421 1.26806
14.22475107 1.52343 1.26665
14.20454545 1.53335 1.26577
14.18439716 1.54395 1.26552
14.16430595 1.55521 1.26597
14.14427157 1.56707 1.2672
14.12429379 1.57952 1.2693
14.10437236 1.59248 1.27234
14.08450704 1.6059 1.27638
14.06469761 1.61973 1.28152
14.04494382 1.6339 1.2878
14.02524544 1.64831 1.29531
14.00560224 1.6629 1.3041
13.98601399 1.67756 1.31422
13.96648045 1.69221 1.32574
13.94700139 1.70673 1.3387
13.9275766 1.72101 1.35313
13.90820584 1.73493 1.36909
13.88888889 1.74836 1.38658
13.86962552 1.76116 1.40563
